EC-Lab ASCII FILE
Nb header lines : 69                          

Potentio Electrochemical Impedance Spectroscopy

Run on channel : 1 (SN 30532)
User : 
CE vs. WE compliance from -10 V to 10 V
Electrode connection : standard
Ewe ctrl range : min = -1.00 V, max = 1.00 V
Safety Limits :
	|I| = 1.000 mA
	for t > 10 ms
	Do not start on E overload
Acquisition started on : 09/09/2018 08:33:58
Technique started on : 09/09/2018 08:33:58
Saved on :
	File : A49-4_StableCycling_RT_EIS_C01.mpr
	Directory : C:\Users\user\Desktop\IPTS20444\Final EISs\
	Host : 10.111.103.71
Device : VSP (SN 1597)
Address : 10.112.22.31
EC-Lab for windows v11.21 (software)
Internet server v11.20 (firmware)
Command interpretor v11.21 (firmware)
Electrode material : 
Initial state : 
Electrolyte : 
Comments : 
Electrode surface area : 0.001 cm²
Characteristic mass : 0.001 g
Equivalent Weight : 0.000 g/eq.
Density : 0.000 g/cm3
Text export
   Mode : Standard
   Time format : Absolute ISO 8601
Cycle Definition : Charge/Discharge alternance
Mode                Single sine         
E (V)               0.0000              
vs.                 Eoc                 
tE (h:m:s)          0:00:0.0000         
record              0                   
dI                  0.000               
unit dI             mA                  
dt (s)              0.000               
fi                  1.000               
unit fi             MHz                 
ff                  250.000             
unit ff             mHz                 
Nd                  15                  
Points              per decade          
spacing             Logarithmic         
Va (mV)             80.0                
pw                  0.10                
Na                  3                   
corr                0                   
E range min (V)     -1.000              
E range max (V)     1.000               
I Range             1 mA                
Bandwidth           5                   
nc cycles           0                   
goto Ns'            0                   
nr cycles           0                   
inc. cycle          0                   

Number of loops : 1
Loop 0 from point number 0 to 99

freq/Hz	Re(Z)/Ohm	-Im(Z)/Ohm	|Z|/Ohm	Phase(Z)/deg	time/s	<Ewe>/V	<I>/mA	Cs/µF	Cp/µF	cycle number	I Range	|Ewe|/V	|I|/A	Re(Y)/Ohm-1	Im(Y)/Ohm-1	|Y|/Ohm-1	Phase(Y)/deg	
1.0000186E+006	5.0042566E+002	5.2790791E+003	5.3027446E+003	-8.4584877E+001	8.704763879941311E-001	4.7584507E-003	3.6518445E-004	3.0147681E-005	2.9879189E-005	1.000000000000000E+000	12	4.2923903E-003	8.0946575E-007	1.7796649E-005	1.8773996E-004	1.8858159E-004	8.4584877E+001
8.5765850E+005	1.5238906E+003	3.9559856E+003	4.2393472E+003	-6.8932747E+001	1.407455213513458E+000	3.3320084E-003	2.4705665E-004	4.6908444E-005	4.0847215E-005	1.000000000000000E+000	12	7.7641197E-003	1.8314422E-006	8.4792191E-005	2.2011860E-004	2.3588538E-004	6.8932747E+001
7.3557194E+005	1.5165847E+003	3.7645750E+003	4.0585779E+003	-6.8057625E+001	1.943469585588900E+000	2.6842868E-003	0.000000000000000E+000	5.7475005E-005	4.9449642E-005	1.000000000000000E+000	12	1.2828114E-002	3.1607412E-006
6.3086400E+005	1.8377970E+003	3.7256470E+003	4.1542681E+003	-6.3743675E+001	2.479455397726269E+000	2.3666534E-003	0.000000000000000E+000	6.7714660E-005	5.4462434E-005	1.000000000000000E+000	12	1.9668091E-002	4.7344301E-006
5.4106669E+005	2.1641167E+003	3.8184497E+003	4.3890728E+003	-6.0457489E+001	3.018472436669981E+000	2.1645436E-003	0.000000000000000E+000	7.7033968E-005	5.8305679E-005	1.000000000000000E+000	12	2.8341144E-002	6.4572055E-006
4.6404578E+005	2.5510625E+003	3.9659810E+003	4.7156045E+003	-5.7249409E+001	3.556454595556716E+000	1.9750749E-003	0.000000000000000E+000	8.6478605E-005	6.1169536E-005	1.000000000000000E+000	12	3.8856015E-002	8.2398801E-006
3.9799213E+005	3.0351138E+003	4.0958608E+003	5.0978418E+003	-5.3460823E+001	4.094467821094440E+000	1.8165939E-003	0.000000000000000E+000	9.7633856E-005	6.3025771E-005	1.000000000000000E+000	12	5.1150803E-002	1.0033815E-005
3.4133759E+005	3.5576724E+003	4.2079648E+003	5.5103540E+003	-4.9786766E+001	4.631471713277278E+000	1.8261034E-003	0.000000000000000E+000	1.1080616E-004	6.4617350E-005	1.000000000000000E+000	12	6.5222420E-002	1.1836340E-005
2.9275534E+005	4.1237451E+003	4.2015103E+003	5.8871016E+003	-4.5535179E+001	5.038474319298984E+000	1.5503466E-003	0.000000000000000E+000	1.2939272E-004	6.5904896E-005	1.000000000000000E+000	12	8.1186920E-002	1.3790644E-005
2.5107631E+005	4.6529863E+003	4.1406577E+003	6.2285898E+003	-4.1665646E+001	5.576471811480587E+000	1.4881474E-003	0.000000000000000E+000	1.5308938E-004	6.7655681E-005	1.000000000000000E+000	12	8.0884486E-002	1.2986003E-005
2.1534480E+005	5.1063530E+003	4.0255068E+003	6.5022725E+003	-3.8249878E+001	6.113471170334378E+000	1.4403419E-003	0.000000000000000E+000	1.8359683E-004	7.0368129E-005	1.000000000000000E+000	12	8.1719488E-002	1.2567835E-005
1.8468861E+005	5.6004546E+003	3.9431790E+003	6.8493613E+003	-3.5148685E+001	6.651466182578588E+000	1.4856303E-003	0.000000000000000E+000	2.1854130E-004	7.2431314E-005	1.000000000000000E+000	12	8.1880711E-002	1.1954503E-005
1.5840261E+005	5.9551450E+003	3.8233582E+003	7.0768511E+003	-3.2701519E+001	7.189470714802155E+000	1.4782283E-003	0.000000000000000E+000	2.6279243E-004	7.6704826E-005	1.000000000000000E+000	12	8.1924006E-002	1.1576336E-005
1.3584658E+005	6.3903770E+003	3.6944316E+003	7.3814458E+003	-3.0033247E+001	7.728478873701533E+000	1.4976002E-003	0.000000000000000E+000	3.1712011E-004	7.9439444E-005	1.000000000000000E+000	12	8.1305057E-002	1.1014788E-005
1.1651017E+005	6.7437163E+003	3.6099749E+003	7.6491587E+003	-2.8160563E+001	8.266469272581162E+000	1.5435971E-003	0.000000000000000E+000	3.7840084E-004	8.4281666E-005	1.000000000000000E+000	12	8.1496030E-002	1.0654247E-005
9.9929484E+004	7.0330547E+003	3.4213547E+003	7.8210947E+003	-2.5941431E+001	8.804475724842632E+000	1.5102973E-003	0.000000000000000E+000	4.6550934E-004	8.9081906E-005	1.000000000000000E+000	12	8.1224307E-002	1.0385286E-005
8.5705539E+004	7.4437290E+003	3.3888533E+003	8.1788403E+003	-2.4478012E+001	9.341460416995687E+000	1.5158908E-003	0.000000000000000E+000	5.4797210E-004	9.4076364E-005	1.000000000000000E+000	12	8.1252702E-002	9.9345016E-006
7.3504305E+004	7.7634370E+003	3.2997080E+003	8.4355811E+003	-2.3027037E+001	9.880456975923153E+000	1.5336220E-003	0.000000000000000E+000	6.5619341E-004	1.0040443E-004	1.000000000000000E+000	12	8.1135757E-002	9.6182775E-006
6.3038156E+004	8.0438911E+003	3.1804810E+003	8.6498350E+003	-2.1573389E+001	1.041946684152936E+001	1.5038649E-003	0.000000000000000E+000	7.9382327E-004	1.0732325E-004	1.000000000000000E+000	12	8.0845878E-002	9.3465223E-006
5.4065840E+004	8.3133730E+003	3.0479697E+003	8.8545068E+003	-2.0134680E+001	1.082547520750086E+001	1.4743129E-003	0.000000000000000E+000	9.6579856E-004	1.1444032E-004	1.000000000000000E+000	12	8.7593585E-002	9.8925429E-006
4.6373961E+004	8.5630293E+003	3.0253550E+003	9.0817529E+003	-1.9458534E+001	1.136345600636560E+001	1.5368663E-003	0.000000000000000E+000	1.1344089E-003	1.2588759E-004	1.000000000000000E+000	12	8.1353456E-002	8.9579025E-006
3.9767668E+004	8.8955469E+003	2.9942034E+003	9.3859473E+003	-1.8603016E+001	1.176847914562677E+001	1.5192656E-003	0.000000000000000E+000	1.3366224E-003	1.3602385E-004	1.000000000000000E+000	12	8.6007096E-002	9.1633901E-006
3.4107781E+004	9.0098340E+003	2.8961470E+003	9.4638672E+003	-1.7819630E+001	1.230647469116957E+001	1.5350577E-003	0.000000000000000E+000	1.6111874E-003	1.5088636E-004	1.000000000000000E+000	12	8.0980487E-002	8.5568072E-006
2.9255119E+004	9.3529336E+003	2.8769814E+003	9.7854170E+003	-1.7098003E+001	1.271346841714694E+001	1.5071838E-003	0.000000000000000E+000	1.8909550E-003	1.6345442E-004	1.000000000000000E+000	12	8.3848484E-002	8.5687188E-006
2.5089076E+004	9.5154521E+003	2.8416580E+003	9.9307021E+003	-1.6627527E+001	1.312045926318388E+001	1.5473635E-003	0.000000000000000E+000	2.2323572E-003	1.8278786E-004	1.000000000000000E+000	12	8.6080678E-002	8.6681357E-006
2.1516848E+004	9.7787539E+003	2.8018345E+003	1.0172232E+004	-1.5988206E+001	1.352845874920604E+001	1.5434481E-003	0.000000000000000E+000	2.6399700E-003	2.0028638E-004	1.000000000000000E+000	12	8.7854959E-002	8.6367436E-006
1.8454945E+004	1.0078533E+004	2.7968940E+003	1.0459419E+004	-1.5509869E+001	1.406546506806626E+001	1.5291660E-003	0.000000000000000E+000	3.0834104E-003	2.2047952E-004	1.000000000000000E+000	12	8.0892593E-002	7.7339473E-006
1.5829126E+004	1.0382879E+004	2.8696621E+003	1.0772146E+004	-1.5449949E+001	1.446945796723594E+001	1.5393647E-003	0.000000000000000E+000	3.5037445E-003	2.4865058E-004	1.000000000000000E+000	12	8.1815697E-002	7.5951157E-006
1.3574450E+004	1.0707775E+004	2.8055332E+003	1.1069213E+004	-1.4681980E+001	1.487546123986249E+001	1.5886803E-003	0.000000000000000E+000	4.1790968E-003	2.6846013E-004	1.000000000000000E+000	12	8.2503803E-002	7.4534478E-006
1.1644524E+004	1.0829479E+004	2.7498113E+003	1.1173141E+004	-1.4247386E+001	1.528245723250438E+001	1.5460396E-003	0.000000000000000E+000	4.9704472E-003	3.0105840E-004	1.000000000000000E+000	12	8.2984552E-002	7.4271466E-006
9.9836709E+003	1.1155057E+004	2.8671379E+003	1.1517629E+004	-1.4414484E+001	1.569045805188944E+001	1.5211487E-003	0.000000000000000E+000	5.5600833E-003	3.4455003E-004	1.000000000000000E+000	12	8.3355635E-002	7.2372218E-006
8.5937490E+003	1.1431491E+004	2.7673997E+003	1.1761696E+004	-1.3608668E+001	1.612772916603717E+001	1.5354865E-003	0.000000000000000E+000	6.6921487E-003	3.7048399E-004	1.000000000000000E+000	12	8.3595835E-002	7.1074642E-006
7.3466196E+003	1.1537949E+004	2.8015083E+003	1.1873193E+004	-1.3647770E+001	1.662322177618626E+001	1.4919882E-003	0.000000000000000E+000	7.7328696E-003	4.3051611E-004	1.000000000000000E+000	12	8.3779015E-002	7.0561487E-006
6.3229336E+003	1.2056204E+004	2.8335903E+003	1.2384720E+004	-1.3226274E+001	1.718450660284725E+001	1.5267050E-003	0.000000000000000E+000	8.8830981E-003	4.6501419E-004	1.000000000000000E+000	12	8.3959036E-002	6.7792439E-006
5.4221079E+003	1.2413822E+004	2.7553342E+003	1.2715929E+004	-1.2514324E+001	1.782842831345624E+001	1.5187808E-003	0.000000000000000E+000	1.0653141E-002	5.0018431E-004	1.000000000000000E+000	12	8.4071517E-002	6.6115122E-006
4.6314819E+003	1.2578820E+004	2.6512156E+003	1.2855181E+004	-1.1901929E+001	1.850269543885224E+001	1.5091788E-003	0.000000000000000E+000	1.2961496E-002	5.5130105E-004	1.000000000000000E+000	12	8.4111631E-002	6.5430145E-006
3.9762722E+003	1.2848796E+004	2.7512017E+003	1.3140041E+004	-1.2085753E+001	1.917667557753157E+001	1.5254370E-003	0.000000000000000E+000	1.4548614E-002	6.3778315E-004	1.000000000000000E+000	12	8.4182702E-002	6.4065784E-006
3.4067295E+003	1.3121165E+004	2.6040461E+003	1.3377071E+004	-1.1225148E+001	1.985293094295776E+001	1.4965748E-003	0.000000000000000E+000	1.7940469E-002	6.7984365E-004	1.000000000000000E+000	12	8.4188260E-002	6.2934746E-006
2.9221948E+003	1.3324298E+004	2.7223315E+003	1.3599559E+004	-1.1547364E+001	2.052895324173733E+001	1.5207012E-003	0.000000000000000E+000	2.0006446E-002	8.0168241E-004	1.000000000000000E+000	12	8.4216982E-002	6.1926262E-006
2.5058020E+003	1.3609104E+004	2.4617131E+003	1.3829959E+004	-1.0253205E+001	2.120467812719289E+001	1.5279355E-003	0.000000000000000E+000	2.5800966E-002	8.1746478E-004	1.000000000000000E+000	12	8.4218889E-002	6.0895977E-006
2.1506880E+003	1.4050149E+004	2.4009504E+003	1.4253815E+004	-9.6972837E+000	2.187867807920702E+001	1.5109687E-003	0.000000000000000E+000	3.0821908E-002	8.7450776E-004	1.000000000000000E+000	12	8.4248163E-002	5.9105691E-006
1.8432308E+003	1.4080669E+004	2.4657566E+003	1.4294936E+004	-9.9327192E+000	2.255493541798205E+001	1.5136722E-003	0.000000000000000E+000	3.5017908E-002	1.0419004E-003	1.000000000000000E+000	12	8.4266700E-002	5.8948640E-006
1.5825320E+003	1.4370875E+004	2.3206445E+003	1.4557041E+004	-9.1730776E+000	2.323142217009445E+001	1.6566780E-003	0.000000000000000E+000	4.3337014E-002	1.1013619E-003	1.000000000000000E+000	12	8.4267080E-002	5.7887505E-006
1.3571713E+003	1.4820628E+004	2.3350608E+003	1.5003450E+004	-8.9536219E+000	2.390544769543340E+001	1.5533298E-003	0.000000000000000E+000	5.0221227E-002	1.2164699E-003	1.000000000000000E+000	12	8.4284604E-002	5.6176814E-006
1.1638824E+003	1.4996543E+004	2.1266497E+003	1.5146582E+004	-8.0712595E+000	2.458095567420241E+001	1.4876626E-003	0.000000000000000E+000	6.4300604E-002	1.2675867E-003	1.000000000000000E+000	12	8.4298901E-002	5.5655396E-006
9.9776501E+002	1.5144238E+004	2.2704063E+003	1.5313480E+004	-8.5262165E+000	2.525818717302172E+001	1.5453125E-003	0.000000000000000E+000	7.0256785E-002	1.5443567E-003	1.000000000000000E+000	12	8.4281057E-002	5.5037167E-006
8.5527405E+002	1.5250523E+004	2.2263428E+003	1.5412173E+004	-8.3056355E+000	2.593270824509091E+001	1.4911118E-003	0.000000000000000E+000	8.3583936E-002	1.7441311E-003	1.000000000000000E+000	12	8.4251471E-002	5.4665538E-006
7.3429523E+002	1.5517560E+004	1.9085282E+003	1.5634485E+004	-7.0116816E+000	2.660893177051912E+001	1.4947290E-003	0.000000000000000E+000	1.1356667E-001	1.6923136E-003	1.000000000000000E+000	12	8.4287114E-002	5.3911026E-006
6.2939575E+002	1.5717400E+004	1.6466809E+003	1.5803425E+004	-5.9809461E+000	2.728393057591165E+001	1.5196012E-003	0.000000000000000E+000	1.5356310E-001	1.6672601E-003	1.000000000000000E+000	12	8.4293038E-002	5.3338463E-006
5.4017285E+002	1.5871326E+004	1.7365830E+003	1.5966049E+004	-6.2442570E+000	2.795870148798713E+001	1.5320746E-003	0.000000000000000E+000	1.6966483E-001	2.0071878E-003	1.000000000000000E+000	12	8.4252775E-002	5.2769960E-006
4.6277863E+002	1.5628956E+004	1.7282606E+003	1.5724222E+004	-6.3101692E+000	2.863770413357270E+001	1.4899559E-003	0.000000000000000E+000	1.9899291E-001	2.4039075E-003	1.000000000000000E+000	12	8.4207572E-002	5.3552776E-006
3.9716055E+002	1.6163644E+004	1.7495496E+003	1.6258054E+004	-6.1776328E+000	2.930966117882781E+001	1.4949900E-003	0.000000000000000E+000	2.2904867E-001	2.6524253E-003	1.000000000000000E+000	12	8.4279321E-002	5.1838506E-006
3.4054486E+002	1.6233851E+004	1.6246597E+003	1.6314944E+004	-5.7150474E+000	2.998543129090103E+001	1.3862905E-003	0.000000000000000E+000	2.8766260E-001	2.8525745E-003	1.000000000000000E+000	12	8.4261827E-002	5.1647021E-006
2.9196201E+002	1.6232025E+004	1.6264197E+003	1.6313304E+004	-5.7218366E+000	3.065839214951848E+001	1.5054871E-003	0.000000000000000E+000	3.3516693E-001	3.3315211E-003	1.000000000000000E+000	12	8.4230475E-002	5.1632996E-006
2.5040062E+002	1.6413764E+004	1.0121265E+003	1.6444939E+004	-3.5285778E+000	3.133342047492624E+001	1.5462260E-003	0.000000000000000E+000	6.2798601E-001	2.3787837E-003	1.000000000000000E+000	12	8.4228493E-002	5.1218485E-006
2.1479381E+002	1.6594941E+004	1.2372125E+003	1.6640996E+004	-4.2637186E+000	3.200993909372482E+001	1.4882033E-003	0.000000000000000E+000	5.9889960E-001	3.3104271E-003	1.000000000000000E+000	12	8.4268086E-002	5.0638846E-006
1.8435109E+002	1.6825316E+004	1.1936703E+003	1.6867605E+004	-4.0580440E+000	3.268845085924841E+001	1.4550341E-003	0.000000000000000E+000	7.2325271E-001	3.6220292E-003	1.000000000000000E+000	12	8.4292822E-002	4.9973200E-006
1.5802779E+002	1.6855744E+004	1.3534628E+003	1.6909996E+004	-4.5908198E+000	3.337126926504425E+001	1.4868795E-003	0.000000000000000E+000	7.4411553E-001	4.7670091E-003	1.000000000000000E+000	12	8.4292263E-002	4.9847595E-006
1.3556395E+002	1.6863184E+004	1.0086357E+003	1.6893322E+004	-3.4229479E+000	3.404294100363040E+001	1.5128144E-003	0.000000000000000E+000	1.1639694E+000	4.1493503E-003	1.000000000000000E+000	12	8.4278584E-002	4.9888695E-006
1.1622738E+002	1.6802924E+004	1.0850293E+003	1.6837920E+004	-3.6946785E+000	3.471265207545366E+001	1.5227895E-003	0.000000000000000E+000	1.2620316E+000	5.2405428E-003	1.000000000000000E+000	12	8.4262587E-002	5.0043350E-006
9.9776497E+001	1.6946846E+004	1.1452325E+003	1.6985498E+004	-3.8660514E+000	3.539020482756314E+001	1.5014971E-003	0.000000000000000E+000	1.3928301E+000	6.3318261E-003	1.000000000000000E+000	12	8.4280275E-002	4.9618961E-006
8.5464958E+001	1.6887133E+004	1.1313948E+003	1.6924990E+004	-3.8329430E+000	3.605965408610064E+001	1.5216148E-003	0.000000000000000E+000	1.6459547E+000	7.3551130E-003	1.000000000000000E+000	12	8.4256768E-002	4.9782461E-006
7.3333832E+001	1.6935684E+004	9.7380542E+002	1.6963658E+004	-3.2908957E+000	3.674832115878235E+001	1.5049650E-003	0.000000000000000E+000	2.2286587E+000	7.3442748E-003	1.000000000000000E+000	12	8.4273718E-002	4.9678974E-006
6.2925957E+001	1.7104725E+004	9.1395325E+002	1.7129125E+004	-3.0585651E+000	3.744234796505771E+001	1.4968731E-003	0.000000000000000E+000	2.7673643E+000	7.8785066E-003	1.000000000000000E+000	12	8.4277578E-002	4.9201335E-006
5.3980839E+001	1.6990750E+004	9.6968195E+002	1.7018398E+004	-3.2663937E+000	3.812754893090460E+001	1.5099618E-003	0.000000000000000E+000	3.0405436E+000	9.8712565E-003	1.000000000000000E+000	12	8.4260754E-002	4.9511564E-006
4.6258221E+001	1.7295521E+004	7.2971088E+002	1.7310908E+004	-2.4159186E+000	3.878730058894143E+001	1.5536654E-003	0.000000000000000E+000	4.7149854E+000	8.3780373E-003	1.000000000000000E+000	12	8.4282100E-002	4.8687280E-006
3.9707752E+001	1.7290314E+004	6.3325110E+002	1.7301906E+004	-2.0974984E+000	3.946720934126643E+001	1.5105212E-003	0.000000000000000E+000	6.3294921E+000	8.4787700E-003	1.000000000000000E+000	12	8.4278695E-002	4.8710640E-006
3.4051991E+001	1.7467953E+004	8.7025513E+002	1.7489617E+004	-2.8521233E+000	4.015933548079920E+001	1.4731382E-003	0.000000000000000E+000	5.3707018E+000	1.3297305E-002	1.000000000000000E+000	12	8.4274761E-002	4.8185593E-006
2.9187422E+001	1.7229299E+004	7.6223828E+002	1.7246152E+004	-2.5331602E+000	4.085034079357865E+001	1.5142316E-003	0.000000000000000E+000	7.1537476E+000	1.3974321E-002	1.000000000000000E+000	12	8.4259212E-002	4.8856818E-006
2.5040062E+001	1.6994932E+004	6.5146448E+002	1.7007414E+004	-2.1952367E+000	4.152542250565602E+001	1.4030337E-003	0.000000000000000E+000	9.7564993E+000	1.4315249E-002	1.000000000000000E+000	12	8.4261812E-002	4.9544165E-006
2.1462912E+001	1.7316836E+004	9.2611365E+002	1.7341582E+004	-3.0612926E+000	4.215911266909097E+001	1.5062515E-003	0.000000000000000E+000	8.0069513E+000	2.2835910E-002	1.000000000000000E+000	12	8.4272765E-002	4.8595775E-006
1.8425707E+001	1.7593303E+004	7.0217456E+002	1.7607309E+004	-2.2855458E+000	4.288587041030405E+001	1.4947383E-003	0.000000000000000E+000	1.2301295E+001	1.9563885E-002	1.000000000000000E+000	12	8.4308706E-002	4.7882791E-006
1.5793462E+001	1.8098613E+004	-1.6235014E+002	1.8099342E+004	5.1394701E-001	4.353069612094987E+001	1.5363815E-003	0.000000000000000E+000	-6.2071198E+001	-4.9942457E-003	1.000000000000000E+000	12	8.4274240E-002	4.6562045E-006
1.3532044E+001	1.7503883E+004	6.0201080E+002	1.7514232E+004	-1.9697964E+000	4.427245959613356E+001	1.5137281E-003	0.000000000000000E+000	1.9536755E+001	2.3082284E-002	1.000000000000000E+000	12	8.4285669E-002	4.8124102E-006
1.1625742E+001	1.7736541E+004	6.7704767E+002	1.7749459E+004	-2.1860604E+000	4.486276578421530E+001	1.5258660E-003	0.000000000000000E+000	2.0219955E+001	2.9420393E-002	1.000000000000000E+000	12	8.4290721E-002	4.7489175E-006
9.9649229E+000	1.7464893E+004	4.1239670E+002	1.7469762E+004	-1.3526678E+000	4.554245893648476E+001	1.5025039E-003	0.000000000000000E+000	3.8728531E+001	2.1581788E-002	1.000000000000000E+000	12	8.4270604E-002	4.8237980E-006
8.5475922E+000	1.7629012E+004	5.8010248E+002	1.7638553E+004	-1.8847021E+000	4.632376732028206E+001	1.4916526E-003	0.000000000000000E+000	3.2097530E+001	3.4718037E-002	1.000000000000000E+000	12	8.4283024E-002	4.7783415E-006
7.3288007E+000	1.7549475E+004	5.5167773E+002	1.7558145E+004	-1.8005325E+000	4.681015331667732E+001	1.5172333E-003	0.000000000000000E+000	3.9364227E+001	3.8861129E-002	1.000000000000000E+000	12	8.4263690E-002	4.7991225E-006
6.2902579E+000	1.8255617E+004	7.8690051E+002	1.8272568E+004	-2.4681821E+000	4.736669974315009E+001	1.4514730E-003	0.000000000000000E+000	3.2153767E+001	5.9631027E-002	1.000000000000000E+000	12	8.4400296E-002	4.6189621E-006
5.3879313E+000	1.7506529E+004	5.3163574E+002	1.7514600E+004	-1.7394154E+000	4.800234878665651E+001	1.4955121E-003	0.000000000000000E+000	5.5562775E+001	5.1193148E-002	1.000000000000000E+000	12	8.4256738E-002	4.8106572E-006
4.6282587E+000	1.7561607E+004	5.6540845E+002	1.7570707E+004	-1.8440413E+000	4.872784628780209E+001	1.5161799E-003	0.000000000000000E+000	6.0819130E+001	6.2977627E-002	1.000000000000000E+000	12	8.4273256E-002	4.7962358E-006
3.9617143E+000	1.7674906E+004	5.4475940E+002	1.7683299E+004	-1.7653581E+000	4.956521803422947E+001	1.5213352E-003	0.000000000000000E+000	7.3744942E+001	6.9986641E-002	1.000000000000000E+000	12	8.4286422E-002	4.7664421E-006
3.4026566E+000	1.7782426E+004	6.7091418E+002	1.7795078E+004	-2.1606908E+000	5.052866949333838E+001	1.4772029E-003	0.000000000000000E+000	6.9716408E+001	9.9098980E-002	1.000000000000000E+000	12	8.4289558E-002	4.7366784E-006
2.9194694E+000	1.7576068E+004	4.7224521E+002	1.7582412E+004	-1.5390898E+000	5.164233005288406E+001	1.4924940E-003	0.000000000000000E+000	1.1543797E+002	8.3277345E-002	1.000000000000000E+000	12	8.4283173E-002	4.7936069E-006
2.5040061E+000	1.7654426E+004	-4.3814243E+001	1.7654480E+004	1.4219472E-001	5.293028035401949E+001	1.4781686E-003	0.000000000000000E+000	-1.4506726E+003	-8.9349104E-003	1.000000000000000E+000	12	8.4344208E-002	4.7774961E-006
2.1462910E+000	1.7126717E+004	-4.9123438E+002	1.7133760E+004	1.6429269E+000	5.442387711832998E+001	1.5221043E-003	0.000000000000000E+000	-1.5095335E+002	-1.2408376E-001	1.000000000000000E+000	12	8.4285609E-002	4.9192709E-006
1.8382351E+000	1.7718814E+004	5.6666254E+002	1.7727873E+004	-1.8317428E+000	5.616001536080148E+001	1.4998998E-003	0.000000000000000E+000	1.5278989E+002	1.5610985E-001	1.000000000000000E+000	12	8.4287226E-002	4.7545032E-006
1.5782831E+000	1.7599475E+004	5.6593958E+002	1.7608572E+004	-1.8418038E+000	5.817160942969849E+001	1.4968755E-003	0.000000000000000E+000	1.7818254E+002	1.8405898E-001	1.000000000000000E+000	12	8.4276281E-002	4.7860940E-006
1.3535167E+000	1.7486775E+004	5.1281335E+002	1.7494293E+004	-1.6797622E+000	6.050992900741403E+001	1.4856514E-003	0.000000000000000E+000	2.2929637E+002	1.9702578E-001	1.000000000000000E+000	12	8.4268175E-002	4.8168949E-006
1.1601573E+000	1.7445416E+004	5.1585358E+002	1.7453041E+004	-1.6937184E+000	6.322900748322718E+001	1.4802391E-003	0.000000000000000E+000	2.6593579E+002	2.3232046E-001	1.000000000000000E+000	12	8.4281772E-002	4.8290594E-006
9.9547672E-001	1.7214236E+004	5.6143109E+002	1.7223389E+004	-1.8680023E+000	6.639067184674059E+001	1.4958212E-003	0.000000000000000E+000	2.8476892E+002	3.0258563E-001	1.000000000000000E+000	12	8.4273539E-002	4.8929710E-006
8.5475922E-001	1.7200742E+004	5.4281726E+002	1.7209305E+004	-1.8075278E+000	7.006415831451886E+001	1.5063732E-003	0.000000000000000E+000	3.4302255E+002	3.4127411E-001	1.000000000000000E+000	12	8.4280640E-002	4.8973880E-006
7.3315531E-001	1.7140662E+004	5.7287201E+002	1.7150232E+004	-1.9142164E+000	7.434152921100031E+001	1.4904245E-003	0.000000000000000E+000	3.7893658E+002	4.2280656E-001	1.000000000000000E+000	12	8.4279597E-002	4.9141959E-006
6.2841856E-001	1.7096199E+004	5.7064966E+002	1.7105721E+004	-1.9117514E+000	7.932289051430416E+001	1.4877729E-003	0.000000000000000E+000	4.4381458E+002	4.9392149E-001	1.000000000000000E+000	12	8.4260829E-002	4.9258861E-006
5.3812510E-001	1.7058746E+004	6.1624200E+002	1.7069873E+004	-2.0688930E+000	8.513107596349437E+001	1.4625263E-003	0.000000000000000E+000	4.7993851E+002	6.2550038E-001	1.000000000000000E+000	12	8.4246226E-002	4.9353748E-006
4.6173167E-001	1.6988996E+004	6.3260706E+002	1.7000770E+004	-2.1324966E+000	9.189157119122683E+001	1.4776126E-003	0.000000000000000E+000	5.4487445E+002	7.5444454E-001	1.000000000000000E+000	12	8.4276162E-002	4.9571968E-006
3.9589036E-001	1.6861729E+004	6.6166077E+002	1.6874705E+004	-2.2471557E+000	9.977008825881057E+001	1.4911338E-003	0.000000000000000E+000	6.0758887E+002	9.3413192E-001	1.000000000000000E+000	12	8.4279828E-002	4.9944474E-006
3.3961487E-001	1.6750330E+004	6.9503961E+002	1.6764744E+004	-2.3760726E+000	1.089474264280580E+002	1.5064647E-003	0.000000000000000E+000	6.7425452E+002	1.1589085E+000	1.000000000000000E+000	12	8.4267132E-002	5.0264489E-006
2.9168534E-001	1.6786363E+004	6.4581744E+002	1.6798781E+004	-2.2032392E+000	1.196264568019251E+002	1.5113939E-003	0.000000000000000E+000	8.4488141E+002	1.2487048E+000	1.000000000000000E+000	12	8.4273256E-002	5.0166291E-006
2.5017613E-001	1.6834643E+004	6.6037866E+002	1.6847590E+004	-2.2464106E+000	1.320688552062784E+002	1.5106682E-003	0.000000000000000E+000	9.6334363E+002	1.4801023E+000	1.000000000000000E+000	12	8.4282458E-002	5.0026420E-006